# ATOM = HeII, log(nuLnu) = 42.5 [erg/s] at 1 Ryd, log(N_H) = 20.5 [1/cm2], metallicity = 0.1 Z_sun, WO line transfer
# (1) radius [kpc] (2) emissivity [erg/s/cm3/sr] (3) number_density [1/cm3]
1.029948825199024	5.1122e-31	7.692799999999999e-09
1.0555704262613712	5.1653e-31	8.14278e-09
1.0975871297490176	5.2578e-31	8.904e-09
1.1414899667831202	5.3534e-31	9.75986e-09
1.1723259817221836	5.4208e-31	1.037901e-08
1.1859275323999814	5.4541e-31	1.066665e-08
1.1977628583650324	5.4765e-31	1.0925760000000001e-08
1.213150078431314	5.5088e-31	1.12565e-08
1.2331521682057647	5.5436e-31	1.168272e-08
1.2591561812242664	5.6043e-31	1.227609e-08
1.2864014127106251	5.6613e-31	1.2892880000000001e-08
1.3095891885265996	5.7068e-31	1.343742e-08
1.3340635537204835	5.7573e-31	1.4023429999999999e-08
1.3658782840049586	5.8208e-31	1.482948e-08
1.398143482610667	5.8799e-31	1.5628300000000002e-08
1.4241410140705895	5.9364e-31	1.633725e-08
1.451071889965872	5.9851e-31	1.70456e-08
1.4860852694090292	6.0449e-31	1.800792e-08
1.5225472771945676	6.12e-31	1.9063800000000004e-08
1.5530721773218443	6.1761e-31	1.9959810000000004e-08
1.5849322785163715	6.2329e-31	2.09176e-08
1.619219723398693	6.2955e-31	2.2001760000000004e-08
1.6485714614231908	6.3455e-31	2.29091e-08
1.6746305676896127	6.3974e-31	2.3730000000000005e-08
1.7045073119590004	6.4401e-31	2.46688e-08
1.7433415701844122	6.5034e-31	2.6059000000000002e-08
1.783161025313815	6.5699e-31	2.7468800000000002e-08
1.8157956727585198	6.6205e-31	2.86286e-08
1.8497622804911864	6.6753e-31	2.9799e-08
1.8939146575305763	6.7372e-31	3.14146e-08
1.9400665953915535	6.8161e-31	3.3276000000000006e-08
1.9791082634914898	6.8764e-31	3.4898399999999994e-08
2.0201592147508816	6.9389e-31	3.6518e-08
2.073525127310162	7.0029e-31	3.8824500000000005e-08
2.1286151344514264	7.0933e-31	4.11425e-08
2.1741253980130937	7.1607e-31	4.3221600000000006e-08
2.2214699426525866	7.2249e-31	4.55318e-08
2.2830155821384244	7.3045e-31	4.82658e-08
2.342798237690805	7.3873e-31	5.126790000000001e-08
2.385540875739286	7.442e-31	5.35631e-08
2.4263552501105488	7.4931e-31	5.5620600000000004e-08
2.479413288637332	7.5628e-31	5.835000000000001e-08
2.5367848043983656	7.6278e-31	6.13316e-08
2.588235416397584	7.703e-31	6.430800000000001e-08
2.643587926661294	7.7648e-31	6.748300000000001e-08
2.7061122814925445	7.8305e-31	7.11144e-08
2.7659694749685815	7.9075e-31	7.473620000000001e-08
2.831792943116486	7.9714e-31	7.881200000000002e-08
2.904483622578723	8.06e-31	8.353540000000001e-08
2.971431641140065	8.1338e-31	8.7856e-08
3.043778797997621	8.1978e-31	9.278160000000001e-08
3.1247723539994143	8.2905e-31	9.838080000000001e-08
3.2009630750942515	8.3678e-31	1.037751e-07
3.283978877372659	8.4447e-31	1.099784e-07
3.376503126086295	8.5328e-31	1.1689200000000003e-07
3.463420826629193	8.6142e-31	1.2378080000000003e-07
3.53961154772403	8.6874e-31	1.300165e-07
3.619885650723567	8.7545e-31	1.366319e-07
3.7075163227101426	8.8262e-31	1.439064e-07
3.7870126386802125	8.8959e-31	1.509936e-07
3.8727312508860163	8.9624e-31	1.5860310000000003e-07
3.9692092503327747	9.0247e-31	1.6715700000000005e-07
4.0611501587743115	9.1037e-31	1.7590580000000003e-07
4.1621976570191865	9.1619e-31	1.8544320000000004e-07
4.274523067191328	9.251e-31	1.967374e-07
4.379394684997748	9.3233e-31	2.0753040000000003e-07
4.493567339364873	9.3789e-31	2.1916979999999999e-07
4.621578121297926	9.4695e-31	2.3243999999999998e-07
4.742394373208412	9.5427e-31	2.4530000000000006e-07
4.8554003470313365	9.6055e-31	2.581e-07
4.983378721171494	9.6552e-31	2.7293700000000003e-07
5.149760329891568	9.7389e-31	2.9393000000000004e-07
5.321392001060542	9.8237e-31	3.1502900000000006e-07
5.4638566586245165	9.8881e-31	3.31898e-07
5.61302972931764	9.9281e-31	3.504e-07
5.806990369790885	9.9952e-31	3.7731300000000006e-07
5.992687023076048	1.0078e-30	4.021900000000001e-07
6.125072857049849	1.0114e-30	4.2078600000000005e-07
6.254444766284469	1.0136e-30	4.39089e-07
6.422641211406631	1.0174e-30	4.63325e-07
6.609634176407572	1.0202e-30	4.895160000000001e-07
6.783469577493367	1.0248e-30	5.178799999999999e-07
6.971888485381663	1.027e-30	5.455360000000002e-07
7.1832521106392235	1.0293e-30	5.793060000000001e-07
7.381555395360325	1.0317e-30	6.10946e-07
7.568353913603898	1.0324e-30	6.402240000000001e-07
7.7831527649082695	1.0332e-30	6.749120000000001e-07
8.062345900693902	1.0307e-30	7.203720000000001e-07
8.348830789880784	1.0313e-30	7.687120000000002e-07
8.582977093543139	1.0334e-30	8.107590000000002e-07
8.825646646736734	1.0308e-30	8.536319999999999e-07
9.141104102771248	1.0273e-30	9.085020000000001e-07
9.47594141895664	1.0252e-30	9.69496e-07
9.767481923835055	1.0226e-30	1.025126e-06
10.078045803142508	1.0176e-30	1.081459e-06
10.458642922894855	1.0114e-30	1.152123e-06
10.813540662881907	1.0084e-30	1.22202e-06
11.083270723142363	1.0067e-30	1.2772620000000003e-06
11.359093448466972	9.9935e-31	1.32795e-06
11.717653269051096	9.9202e-31	1.3982820000000002e-06
12.108782921494136	9.8542e-31	1.475711e-06
12.46384270044566	9.7866e-31	1.5465770000000002e-06
12.847032443629562	9.6932e-31	1.6216200000000002e-06
13.324885349858134	9.5803e-31	1.71666e-06
13.808150357500077	9.4973e-31	1.81692e-06
14.224784942951045	9.4244e-31	1.9136e-06
14.672401378409102	9.2961e-31	1.98489e-06
15.223917197886744	9.16e-31	2.10483e-06
15.761043957319252	9.0633e-31	2.2096799999999997e-06
16.20276217447052	8.9837e-31	2.3160800000000004e-06
16.669985324629714	8.8473e-31	2.3961300000000002e-06
17.272770272466364	8.6871e-31	2.51996e-06
17.918463138095262	8.5409e-31	2.6598e-06
18.494641287965575	8.4282e-31	2.7650400000000005e-06
19.11366254004234	8.2585e-31	2.89362e-06
19.85278707258592	8.0851e-31	3.02845e-06
20.582578160775896	7.9261e-31	3.1815499999999996e-06
21.24240082410677	7.7737e-31	3.3016500000000004e-06
21.976793818887757	7.5836e-31	3.4496e-06
22.839748528081	7.3811e-31	3.6036e-06
23.711064447841014	7.1951e-31	3.7723500000000004e-06
24.551592964351308	7.005e-31	3.9187e-06
25.46798812402749	6.7858e-31	4.0734e-06
26.48672709366432	6.5616e-31	4.2471e-06
27.546170251176584	6.326e-31	4.420840000000001e-06
28.648035209587665	6.0948e-31	4.59648e-06
29.793942358542296	5.8542e-31	4.773090000000001e-06
30.985706534442567	5.6156e-31	4.959e-06
32.22514257369056	5.3706e-31	5.1388799999999995e-06
33.514194943859955	5.1233e-31	5.3153100000000004e-06
34.85458125797415	4.8754e-31	5.49936e-06
36.24876450829311	4.6275e-31	5.672480000000001e-06
37.699013240319466	4.3799e-31	5.8607e-06
39.206947843697925	4.1335e-31	6.03341e-06
40.77516094186006	3.889e-31	6.21089e-06
42.40592108030846	3.646e-31	6.390120000000001e-06
44.102469038332586	3.4067e-31	6.559488e-06
45.86642520557715	3.1722e-31	6.741700000000001e-06
47.70103036133161	2.9432e-31	6.9113650000000005e-06
49.60920120695645	2.7205e-31	7.076732e-06
51.59353036588323	2.5049e-31	7.242495000000001e-06
53.6572586174014	2.296e-31	7.404418e-06
55.803626740800404	2.095e-31	7.558265e-06
58.035551437440745	1.9029e-31	7.73942e-06
60.356921642469736	1.7204e-31	7.8837e-06
62.77130221310579	1.5479e-31	7.981740000000001e-06
65.28225800656729	1.3864e-31	8.10375e-06
67.89335388007261	1.2356e-31	8.23832e-06
70.60912692462699	1.0945e-31	8.31545e-06
73.43346607537775	9.6402e-32	8.343279999999999e-06
76.2539162909812	8.5213e-32	8.466220000000002e-06
78.87667896992852	7.5984e-32	8.50196e-06
81.23726260435978	6.8545e-32	8.55406e-06
83.36191750651952	6.2413e-32	8.53332e-06
85.27397728729169	5.7595e-32	8.580880000000001e-06
86.99483108998665	5.344e-32	8.560760000000002e-06
88.5435995124121	4.9848e-32	8.5592e-06
89.93745868480214	4.693e-32	8.537040000000001e-06
91.19196434774604	4.4555e-32	8.532520000000001e-06
92.32105185218846	4.2379e-32	8.5026e-06
93.36296239374482	4.0425e-32	8.481780000000001e-06
94.37765038926985	3.863e-32	8.461700000000002e-06
95.39233838479488	3.6906e-32	8.39965e-06
96.40670230239097	3.5227e-32	8.370839999999999e-06
97.421390297916	3.3638e-32	8.3064e-06
98.43607829344104	3.2129e-32	8.24256e-06
99.45044221103711	3.0708e-32	8.21275e-06
100.46513020656215	2.9302e-32	8.1425e-06
101.47981820208717	2.7977e-32	8.073230000000001e-06
102.23459569859877	2.7284e-32	8.08704e-06
